Freq,Value
10022511.48,-132.288031
15023039.62,-121.72926
19988548.12,-114.271375
24972437.65,-108.44935
29961427.41,-103.677252
34990110.38,-99.6032551
39954205.59,-96.1108317
44910071.86,-93.0238806
49916277.16,-90.2246545
54860253.81,-87.7141613
59888543.35,-85.3736801
64938163.16,-83.2037119
69940150.5,-81.205084
74820987.79,-79.3789629
79862656.1,-77.6041092
84861545.62,-75.9419428
89768713.24,-74.3934023
94746352.57,-72.8971042
99775390.8,-71.4531414
104835365.2,-70.061707
109657682.3,-68.7870924
114701820.9,-67.5022725
119708503.0,-66.2712648
124653111.9,-65.0947315
129801959.9,-63.9071785
134556985.8,-62.8414613
139800206.4,-61.6977406
144595990.3,-60.6779668
149556291.5,-59.6473818
154686753.6,-58.6050731
159633854.4,-57.620791
164739170.5,-56.6245284
169625908.8,-55.6878433
174657604.8,-54.7391218
179434624.4,-53.851883
184757281.1,-52.8772904
189384202.7,-52.0409265
194564006.2,-51.1153635
199436520.0,-50.2539863
204431057.4,-49.3793135
209550674.2,-48.4903744
214316045.7,-47.6689764
219683214.6,-46.7497657
224679009.2,-45.8988357
229272286.7,-45.119661
234486145.4,-44.2380412
239279917.3,-43.429302
244171691.9,-42.6050508
249163472.6,-41.7641931
254257303.9,-40.9055273
259455272.1,-40.0277312
264164832.0,-39.2302305
269565347.1,-38.3121867
274458422.3,-37.476227
279440315.2,-36.6200791
284512638.0,-35.7422094
289026391.0,-34.9549204
294272717.6,-34.0315778
298941312.9,-33.2014409
304367612.4,-32.2252252
309196361.7,-31.3450124
314101718.5,-30.4384462
319084898.1,-29.5033066
324147135.1,-28.537091
329289683.7,-27.5369644
334513818.2,-26.4996991
339057564.0,-25.5782696
344436664.6,-24.4618136
349115193.7,-23.4658556
353857271.9,-22.4302508
359471167.8,-21.1666224
364353912.6,-20.030783
369302980.3,-18.84075
374319272.0,-17.5905769
379403700.5,-16.2736432
383693440.8,-15.1200657
388905199.9,-13.6622113
394187751.1,-12.1183341
398644647.7,-10.763958
404059491.1,-9.0618451
408628002.8,-7.59414243
414178451.4,-5.82039554
418861373.5,-4.40428635
423597243.2,-3.1491871
429351021.0,-2.02009148
434205492.2,-1.48310311
439114850.7,-1.29365725
444079716.9,-1.35071999
449100718.6,-1.53561615
454178490.4,-1.7554161
459313674.2,-1.9522519
463463593.9,-2.07195531
468703760.0,-2.16208699
474003174.2,-2.18186999
478285814.2,-2.1478612
483693568.2,-2.04738234
489162465.2,-1.89004839
493582070.0,-1.7304117
499162771.6,-1.5000196
503672729.7,-1.30131594
508223435.4,-1.10054428
513969680.1,-0.86376868
518613419.2,-0.70019355
523299114.7,-0.57212532
529215813.1,-0.47676573
533997301.7,-0.46008549
538821991.2,-0.4985644
543690272.1,-0.58939468
548602538.1,-0.72568444
553559186.6,-0.89751589
558560618.7,-1.09326895
563607238.9,-1.30086615
568699455.6,-1.50871514
573837680.7,-1.70627997
579022329.8,-1.88432789
582941534.7,-2.00025192
588208437.6,-2.1258656
593522927.2,-2.21311399
598885433.5,-2.25723692
602939084.9,-2.25978533
608386666.6,-2.22046354
613883467.4,-2.131631
618038635.5,-2.03352451
623622642.3,-1.86534454
627843731.4,-1.71754269
633516327.7,-1.50807167
637804383.9,-1.35973425
643566975.1,-1.21291588
647923060.7,-1.17678716
653777074.6,-1.28740817
658202268.9,-1.5267753
662657415.8,-1.9194518
668644555.2,-2.67832819
673170382.4,-3.39934253
677726843.4,-4.21787159
683850135.8,-5.40704303
688478884.4,-6.33746481
693138963.4,-7.27826351
697830584.9,-8.21533242
702553962.3,-9.13927218
708901568.9,-10.3409842
713699882.1,-11.2156179
718530673.4,-12.065879
723394162.7,-12.8914775
728290571.4,-13.6927395
733220122.1,-14.4703669
738183039.3,-15.2252781
743179548.8,-15.9585027
748209877.9,-16.6711139
753274255.7,-17.3641849
758372912.5,-18.0387626
763506080.3,-18.6958521
768673992.9,-19.3364076
772138686.5,-19.7547055
777365030.2,-20.3696762
782626749.3,-20.9703894
787924083.1,-21.5575998
793257272.8,-22.1320114
798626561.0,-22.6942809
802226261.8,-23.0626855
807656258.0,-23.6060574
813123008.1,-24.1388288
818626760.7,-24.6615081
822316609.7,-25.0045901
827882590.6,-25.5114894
833486245.8,-26.0094956
837243071.9,-26.3367567
842910085.0,-26.8208128
848615456.2,-27.2969823
852440475.2,-27.6102139
858210354.3,-28.0739753
862078621.0,-28.3792231
867913737.5,-28.8314188
871825740.8,-29.1292172
877726832.2,-29.5706105
883667866.1,-30.0058592
887650879.1,-30.2927282
891651844.9,-30.5770381
897687132.4,-30.9988445
901733335.3,-31.2770328
907836861.1,-31.6899386
911928812.5,-31.9623735
918101347.9,-32.3669072
922239565.1,-32.6339261
928481890.5,-33.0305732
932666896.6,-33.2924867
936870766.0,-33.5524393
943212125.0,-33.9387882
947463525.7,-34.1940296
951734088.9,-34.4474595
958176052.7,-34.8242941
962494901.2,-35.0733662
966833216.3,-35.3207606
973377380.9,-35.6887848
977764747.3,-35.9321396
982171889.2,-36.1739375
986598895.7,-36.414211
993276847.4,-36.7718314
997753908.0,-37.0084293
1002251148.0,-37.2436092
1006768659.0,-37.4773995
1011306532.0,-37.709828
1018151722.0,-38.0559763
1022740902.0,-38.2851171
1027350768.0,-38.5129878
1031981412.0,-38.739613
1036632928.0,-38.9650168
1041305411.0,-39.1892228
1048353652.0,-39.5233354
1053078964.0,-39.7446453
1057825574.0,-39.964835
1062593580.0,-40.1839254
1067383076.0,-40.401937
1072194160.0,-40.6188897
1077026930.0,-40.8348032
1081881483.0,-41.0496965
1086757917.0,-41.2635882
1091656330.0,-41.4764966
1096576823.0,-41.6884393
1101519494.0,-41.8994339
1106484444.0,-42.1094974
1111471772.0,-42.3186462
1116481580.0,-42.5268968
1121513970.0,-42.734265
1126569041.0,-42.9407664
1131646899.0,-43.1464161
1136747643.0,-43.3512292
1141871379.0,-43.55522
1147018209.0,-43.7584031
1152188238.0,-43.9607922
1157381570.0,-44.1624012
1162598311.0,-44.3632433
1167838565.0,-44.5633318
1173102438.0,-44.7626794
1175743266.0,-44.8620794
1181042769.0,-45.0603393
1186366159.0,-45.2578895
1191713543.0,-45.4547418
1197085030.0,-45.650908
1202480729.0,-45.8463997
1207900747.0,-46.0412281
1210619911.0,-46.138397
1216076616.0,-46.3322512
1221557916.0,-46.5254693
1227063923.0,-46.7180619
1232594747.0,-46.9100394
1235369500.0,-47.0058007
1240937761.0,-47.1968745
1246531119.0,-47.3873581
1252149689.0,-47.5772613
1257793584.0,-47.7665936
1260625064.0,-47.8610485
1266307160.0,-48.0495418
1272014868.0,-48.2374871
1277748302.0,-48.4248933
1280624703.0,-48.518397
1286396945.0,-48.705011
1292195205.0,-48.8911076
1298019599.0,-49.0766949
1300941634.0,-49.1693003
1306805451.0,-49.3541393
1312695700.0,-49.5384895
1315650772.0,-49.6304837
1321580890.0,-49.8141152
1327537736.0,-49.9972772
1330526220.0,-50.0886845
1336523387.0,-50.2711563
1342547584.0,-50.4531771
1345569858.0,-50.5440206
1351634832.0,-50.7253785
1357727142.0,-50.9063031
1360783587.0,-50.9966051
1366917135.0,-51.1768928
1369994268.0,-51.2668801
1376169331.0,-51.446546
1382372227.0,-51.6258056
1385484152.0,-51.715285
1391729034.0,-51.8939471
1394862022.0,-51.9831314
1401149174.0,-52.1612102
1407464663.0,-52.3389078
1410633075.0,-52.4276155
1416991312.0,-52.6047526
1420181170.0,-52.6931834
1426582444.0,-52.8697732
1429793892.0,-52.9579336
1436238494.0,-53.133989
1442712144.0,-53.3096951
1445959903.0,-53.3974189
1452477371.0,-53.5726115
1455747113.0,-53.6600815
1462308696.0,-53.8347726
1465600569.0,-53.9219949
1472206565.0,-54.0961963
1475520720.0,-54.1831766
1482171429.0,-54.3568999
1485508017.0,-54.443644
1492203743.0,-54.6169003
1495562915.0,-54.7034137
1502303962.0,-54.8762141
1505685871.0,-54.9625022
1512472545.0,-55.1348574
1515877345.0,-55.2209256
1519289810.0,-55.3069216
1526137803.0,-55.4786994
1529573365.0,-55.5644824
1536467709.0,-55.735839
1539926526.0,-55.8214139
1546867536.0,-55.9923594
1550349764.0,-56.0777311
1557337755.0,-56.248275
1560843553.0,-56.3334483
1564357244.0,-56.4185565
1571408372.0,-56.5885797
1574945845.0,-56.6734958
1582044699.0,-56.8431392
1585606117.0,-56.9278676
1589175551.0,-57.0125345
1596338544.0,-57.1816854
1599932139.0,-57.2661705
1607143616.0,-57.4349623
1610761535.0,-57.5192699
1614387598.0,-57.6035194
1621664231.0,-57.7718454
1625314837.0,-57.855923
1628973662.0,-57.9399441
1636316040.0,-58.1078191
1639999630.0,-58.1916738
1647391705.0,-58.3592198
1651100228.0,-58.442912
1654817100.0,-58.5265509
1662275963.0,-58.6936705
1666017993.0,-58.777152
1669768447.0,-58.8605818
1677294701.0,-59.0272884
1681070540.0,-59.1105659
1684854879.0,-59.1937934
1688647738.0,-59.2769713
1696259088.0,-59.4431799
1700077619.0,-59.5262114
1703904746.0,-59.6091949
1711584865.0,-59.7750194
1715437896.0,-59.8578612
1719299601.0,-59.9406565
1727049111.0,-60.1061091
1730936955.0,-60.1887672
1734833550.0,-60.2713803
1738738918.0,-60.3539487
1746576048.0,-60.5189531
1750507849.0,-60.6013897
1754448502.0,-60.6837832
1758398026.0,-60.7661338
1766323766.0,-60.9307078
1770300023.0,-61.0129319
1774285231.0,-61.0951145
1778279410.0,-61.177256
1786294763.0,-61.3414168
1790315977.0,-61.4234368
1794346244.0,-61.5054171
1798385584.0,-61.5873578
1806491563.0,-61.751122
1810558243.0,-61.8329462
1814634078.0,-61.9147321
1818719089.0,-61.9964801
1826916718.0,-62.1598637
1831029378.0,-62.2414999
1835151297.0,-62.3230994
1839282495.0,-62.4046625
1843422992.0,-62.4861895
1851731971.0,-62.6491366
1855900495.0,-62.7305572
1860078402.0,-62.8119429
1864265714.0,-62.893294
1868462453.0,-62.9746108
1876884294.0,-63.1371426
1881109438.0,-63.2183581
1885344095.0,-63.2995404
1889588284.0,-63.3806898
1893842027.0,-63.4618066
1898105347.0,-63.542891
1906660799.0,-63.7049637
1910952975.0,-63.7859526
1915254813.0,-63.8669102
1919566336.0,-63.9478367
1923887565.0,-64.0287324
1928218521.0,-64.1095977
1936909704.0,-64.2712376
1941269975.0,-64.3520128
1945640062.0,-64.4327584
1950019986.0,-64.5134749
1954409770.0,-64.5941623
1958809436.0,-64.6748209
1963219007.0,-64.755451
1967638504.0,-64.8360528
1976507367.0,-64.9971726
1980956779.0,-65.077691
1985416206.0,-65.158182
1989885672.0,-65.238646
1994365200.0,-65.3190831
1998854812.0,-65.3994936
2003354530.0,-65.4798776
2007864379.0,-65.5602354
2012384379.0,-65.6405673
2021454928.0,-65.8011541
2026005523.0,-65.8814094
2030566362.0,-65.9616396
2035137468.0,-66.041845
2039718864.0,-66.1220257
2044310574.0,-66.2021819
2048912620.0,-66.282314
2053525026.0,-66.362422
2058147816.0,-66.4425062
2062781012.0,-66.5225668
2067424638.0,-66.602604
2076743274.0,-66.762609
2081418331.0,-66.8425772
2086103912.0,-66.9225228
2090800041.0,-67.002446
2095506742.0,-67.082347
2100224039.0,-67.1622259
2104951954.0,-67.2420831
2109690513.0,-67.3219187
2114439740.0,-67.4017328
2119199657.0,-67.4815256
2123970290.0,-67.5612974
2128751662.0,-67.6410484
2133543797.0,-67.7207786
2138346721.0,-67.8004883
2143160457.0,-67.8801778
2147985029.0,-67.959847
2152820461.0,-68.0394963
2157666779.0,-68.1191258
2162524007.0,-68.1987357
2167392170.0,-68.2783262
2172271291.0,-68.3578974
2177161396.0,-68.4374495
2182062509.0,-68.5169827
2186974655.0,-68.5964971
2191897859.0,-68.675993
2196832146.0,-68.7554704
2201777541.0,-68.8349296
2206734069.0,-68.9143707
2211701755.0,-68.9937939
2216680623.0,-69.0731993
2221670700.0,-69.1525872
2226672010.0,-69.2319575
2231684579.0,-69.3113107
2236708432.0,-69.3906466
2241743595.0,-69.4699657
2246790092.0,-69.5492679
2251847949.0,-69.6285534
2256917193.0,-69.7078224
2261997848.0,-69.7870751
2267089941.0,-69.8663116
2272193497.0,-69.945532
2277308541.0,-70.0247365
2282435100.0,-70.1039253
2287573200.0,-70.1830984
2292722867.0,-70.2622561
2297884126.0,-70.3413984
2303057004.0,-70.4205255
2308241527.0,-70.4996377
2313437721.0,-70.5787348
2318645612.0,-70.6578173
2323865227.0,-70.7368851
2329096592.0,-70.8159384
2334339734.0,-70.8949773
2339594679.0,-70.9740021
2344861454.0,-71.0530127
2350140085.0,-71.1320094
2355430598.0,-71.2109923
2360733022.0,-71.2899614
2366047382.0,-71.368917
2366047382.0,-71.368917
2371373706.0,-71.4478592
2376712020.0,-71.5267881
2382062351.0,-71.6057038
2387424726.0,-71.6846064
2392799173.0,-71.7634961
2398185719.0,-71.842373
2403584391.0,-71.9212372
2408995216.0,-72.0000888
2414418221.0,-72.078928
2419853435.0,-72.1577549
2425300884.0,-72.2365696
2430760596.0,-72.3153722
2436232598.0,-72.3941628
2436232598.0,-72.3941628
2441716919.0,-72.4729416
2447213586.0,-72.5517086
2452722627.0,-72.630464
2458244069.0,-72.7092079
2463777941.0,-72.7879404
2469324270.0,-72.8666616
2474883085.0,-72.9453717
2480454414.0,-73.0240706
2486038285.0,-73.1027587
2486038285.0,-73.1027587
2491634726.0,-73.1814358
2497243765.0,-73.2601022
2502865431.0,-73.338758
2508499752.0,-73.4174033
2514146757.0,-73.4960381
2519806475.0,-73.5746627
2525478933.0,-73.6532769
2525478933.0,-73.6532769
2531164160.0,-73.7318811
2536862186.0,-73.8104753
2542573039.0,-73.8890595
2548296748.0,-73.967634
2554033342.0,-74.0461987
2559782850.0,-74.1247538
2565545300.0,-74.2032994
2565545300.0,-74.2032994
2571320723.0,-74.2818355
2577109148.0,-74.3603624
2582910602.0,-74.43888
2588725117.0,-74.5173884
2594552721.0,-74.5958879
2600393444.0,-74.6743783
2600393444.0,-74.6743783
2606247316.0,-74.7528599
2612114365.0,-74.8313327
2617994622.0,-74.9097969
2623888116.0,-74.9882525
2629794877.0,-75.0666995
2635714935.0,-75.1451382
2635714935.0,-75.1451382
2641648320.0,-75.2235685
2647595062.0,-75.3019906
2653555192.0,-75.3804045
2659528738.0,-75.4588104
2665515731.0,-75.5372083
2665515731.0,-75.5372083
2671516203.0,-75.6155983
2677530182.0,-75.6939805
2683557699.0,-75.7723549
2689598786.0,-75.8507217
2695653471.0,-75.9290809
2695653471.0,-75.9290809
2701721787.0,-76.0074327
2707803763.0,-76.085777
2713899431.0,-76.164114
2720008821.0,-76.2424438
2720008821.0,-76.2424438
2726131964.0,-76.3207663
2732268892.0,-76.3990818
2738419634.0,-76.4773903
2744584223.0,-76.5556918
2744584223.0,-76.5556918
2750762689.0,-76.6339865
2756955064.0,-76.7122744
2763161378.0,-76.7905555
2769381664.0,-76.86883
2775615953.0,-76.947098
2775615953.0,-76.947098
2781864276.0,-77.0253594
2788126665.0,-77.1036144
2794403152.0,-77.1818631
2794403152.0,-77.1818631
2800693768.0,-77.2601055
2806998545.0,-77.3383416
2813317515.0,-77.4165716
2819650710.0,-77.4947956
2819650710.0,-77.4947956
2825998162.0,-77.5730135
2832359903.0,-77.6512255
2838735965.0,-77.7294316
2845126380.0,-77.8076319
2845126380.0,-77.8076319
2851531182.0,-77.8858265
2857950401.0,-77.9640153
2864384071.0,-78.0421986
2864384071.0,-78.0421986
2870832225.0,-78.1203763
2877294894.0,-78.1985486
2883772111.0,-78.2767154
2890263910.0,-78.3548769
2890263910.0,-78.3548769
2896770323.0,-78.433033
2903291382.0,-78.5111839
2909827122.0,-78.5893297
2909827122.0,-78.5893297
2916377574.0,-78.6674703
2922942772.0,-78.7456059
2929522750.0,-78.8237365
2929522750.0,-78.8237365
2936117540.0,-78.9018622
2942727176.0,-78.9799829
2949351691.0,-79.0580989
2949351691.0,-79.0580989
2955991119.0,-79.1362101
2962645494.0,-79.2143166
2969314848.0,-79.2924184
2969314848.0,-79.2924184
2975999216.0,-79.3705157
2982698632.0,-79.4486084
2989413129.0,-79.5266966
2989413129.0,-79.5266966
2996142741.0,-79.6047804
3002887503.0,-79.6828599
3009647448.0,-79.760935
3009647448.0,-79.760935
3016422610.0,-79.8390058
3023213025.0,-79.9170725
3030018726.0,-79.9951349
3030018726.0,-79.9951349
3036839747.0,-80.0731933
3043676124.0,-80.1512476
3043676124.0,-80.1512476
3050527890.0,-80.2292979
3057395081.0,-80.3073442
3064277731.0,-80.3853866
3064277731.0,-80.3853866
3071175874.0,-80.4634252
3078089547.0,-80.5414599
3085018783.0,-80.6194909
3085018783.0,-80.6194909
3091963617.0,-80.6975181
3098924086.0,-80.7755417
3098924086.0,-80.7755417
3105900224.0,-80.8535617
3112892066.0,-80.9315781
3119899647.0,-81.009591
3119899647.0,-81.009591
3126923004.0,-81.0876004
3133962171.0,-81.1656064
3133962171.0,-81.1656064
3141017185.0,-81.243609
3148088080.0,-81.3216082
3148088080.0,-81.3216082
3155174894.0,-81.3996041
3162277660.0,-81.4775968
3169396416.0,-81.5555863
3169396416.0,-81.5555863
3176531197.0,-81.6335726
3183682040.0,-81.7115557
3183682040.0,-81.7115557
3190848981.0,-81.7895358
3198032055.0,-81.8675128
3198032055.0,-81.8675128
3205231299.0,-81.9454869
3212446750.0,-82.0234579
3219678444.0,-82.1014261
3219678444.0,-82.1014261
3226926418.0,-82.1793914
3234190708.0,-82.2573538
3234190708.0,-82.2573538
3241471351.0,-82.3353134
3248768383.0,-82.4132703
3248768383.0,-82.4132703
3256081843.0,-82.4912245
3263411766.0,-82.569176
3263411766.0,-82.569176
3270758190.0,-82.6471248
3278121151.0,-82.725071
3278121151.0,-82.725071
3285500688.0,-82.8030147
3292896837.0,-82.8809558
3292896837.0,-82.8809558
3300309637.0,-82.9588944
3307739123.0,-83.0368306
3307739123.0,-83.0368306
3315185334.0,-83.1147643
3322648308.0,-83.1926957
3322648308.0,-83.1926957
3330128082.0,-83.2706247
3337624694.0,-83.3485514
3337624694.0,-83.3485514
3345138182.0,-83.4264758
3352668585.0,-83.504398
3352668585.0,-83.504398
3360215939.0,-83.5823179
3367780283.0,-83.6602357
3367780283.0,-83.6602357
3375361656.0,-83.7381513
3382960096.0,-83.8160648
3382960096.0,-83.8160648
3390575640.0,-83.8939763
3398208329.0,-83.9718857
3398208329.0,-83.9718857
3405858200.0,-84.049793
3413525292.0,-84.1276984
3413525292.0,-84.1276984
3421209643.0,-84.2056019
3428911294.0,-84.2835034
3428911294.0,-84.2835034
3436630281.0,-84.361403
3444366646.0,-84.4393008
3444366646.0,-84.4393008
3452120426.0,-84.5171968
3452120426.0,-84.5171968
3459891661.0,-84.5950909
3467680390.0,-84.6729833
3467680390.0,-84.6729833
3475486653.0,-84.750874
3483310489.0,-84.8287629
3483310489.0,-84.8287629
3491151937.0,-84.9066502
3499011038.0,-84.9845358
3499011038.0,-84.9845358
3506887831.0,-85.0624198
3506887831.0,-85.0624198
3514782355.0,-85.1403022
3522694651.0,-85.218183
3522694651.0,-85.218183
3530624760.0,-85.2960623
3538572719.0,-85.3739401
3538572719.0,-85.3739401
3546538571.0,-85.4518164
3546538571.0,-85.4518164
3554522356.0,-85.5296912
3562524113.0,-85.6075646
3562524113.0,-85.6075646
3570543883.0,-85.6854366
3578581706.0,-85.7633072
3578581706.0,-85.7633072
3586637624.0,-85.8411765
3586637624.0,-85.8411765
3594711678.0,-85.9190445
3602803907.0,-85.9969111
3602803907.0,-85.9969111
3610914353.0,-86.0747765
3619043056.0,-86.1526406
3619043056.0,-86.1526406
3627190059.0,-86.2305035
3627190059.0,-86.2305035
3635355402.0,-86.3083651
3643539126.0,-86.3862256
3643539126.0,-86.3862256
3651741273.0,-86.464085
3651741273.0,-86.464085
3659961884.0,-86.5419432
3668201001.0,-86.6198003
3668201001.0,-86.6198003
3676458665.0,-86.6976563
3676458665.0,-86.6976563
3684734919.0,-86.7755113
3693029803.0,-86.8533652
3693029803.0,-86.8533652
3701343361.0,-86.9312181
3701343361.0,-86.9312181
3709675634.0,-87.0090699
3718026664.0,-87.0869209
3718026664.0,-87.0869209
3726396493.0,-87.1647708
3726396493.0,-87.1647708
3734785164.0,-87.2426199
3743192720.0,-87.320468
3743192720.0,-87.320468
3751619202.0,-87.3983152
3751619202.0,-87.3983152
3760064653.0,-87.4761616
3768529116.0,-87.5540071
3768529116.0,-87.5540071
3777012634.0,-87.6318518
3777012634.0,-87.6318518
3785515249.0,-87.7096957
3794037005.0,-87.7875388
3794037005.0,-87.7875388
3802577945.0,-87.8653811
3802577945.0,-87.8653811
3811138112.0,-87.9432227
3811138112.0,-87.9432227
3819717549.0,-88.0210635
3828316300.0,-88.0989036
3828316300.0,-88.0989036
3836934408.0,-88.1767431
3836934408.0,-88.1767431
3845571916.0,-88.2545819
3845571916.0,-88.2545819
3854228869.0,-88.33242
3862905309.0,-88.4102574
3862905309.0,-88.4102574
3871601282.0,-88.4880943
3871601282.0,-88.4880943
3880316831.0,-88.5659306
3880316831.0,-88.5659306
3889051999.0,-88.6437662
3897806832.0,-88.7216014
3897806832.0,-88.7216014
3906581373.0,-88.7994359
3906581373.0,-88.7994359
3915375667.0,-88.87727
3915375667.0,-88.87727
3924189758.0,-88.9551035
3933023692.0,-89.0329365
3933023692.0,-89.0329365
3941877511.0,-89.110769
3941877511.0,-89.110769
3950751262.0,-89.1886011
3950751262.0,-89.1886011
3959644989.0,-89.2664327
3968558737.0,-89.3442639
3968558737.0,-89.3442639
3977492551.0,-89.4220947
3977492551.0,-89.4220947
3986446477.0,-89.4999251
3986446477.0,-89.4999251
3995420559.0,-89.5777551
3995420559.0,-89.5777551
4004414843.0,-89.6555847
4013429375.0,-89.733414
4013429375.0,-89.733414
4022464199.0,-89.8112429
4022464199.0,-89.8112429
4031519363.0,-89.8890715
4031519363.0,-89.8890715
4040594911.0,-89.9668998
4040594911.0,-89.9668998
4049690889.0,-90.0447278
4049690889.0,-90.0447278
